0.12844640990554312
0.38981030827786944
0.9635627253333897
0.4754867171466019
0.25756414354754953
0.14075619345607365
0.6093614332322951
0.9650663238993481
0.31390862886775367
0.4053368823892282
0.8216165053114605
0.6726110477008761
0.027956996605002962
0.7270898688724602
0.008300137790200994
0.37080543526783555
0.9118922181039039
0.3708278970192661
0.9228706594338836
0.7910719446923253
0.8933440177885171
0.370760809271616
0.16946632812394247
0.03159461031018191
0.2307659353110484
0.11211552658898669
0.5828525502046177
0.8478045274263192
0.8753667327180995
0.6580062979180932
0.1275628151803954
0.40534223750877457
0.13890183455982927
0.25877975568457096
0.1590922715360967
0.25676280940876656
0.5962766448807512
0.12894755984308906
0.6733104858149577
0.2917631269971063
0.6834908655792105
0.06088845300860285
0.25911921076248123
0.2970289945510171
0.9592970751080805
0.010521619882011841
0.9669529622661914
0.12797025052588018
0.46864153558648003
0.46863231288059465
0.9898803115906059
0.006526998207076225
0.46863737049349957
0.9679036447389893
0.5909404170061341
0.3709547836018504
0.44165292309944204
0.9992355566847585
0.9754977992689964
0.2587729130318173
0.10293179407363795
0.37317373688720884
0.9064609368573392
0.6552277346401412
0.42401092801395424
0.0981696052637255
0.6003954755784979
0.06088547794218821
0.12006401152897737
0.9991244379541718
0.3709647500743395
0.3342377039389433
0.058884597025022835
0.8183638652003358
0.12579369193693038
0.4219682474136632
0.12057646671889892
0.003937351646453818
0.2492708484101022
0.2586998751513379
0.4941332434069925
0.39990500612938057
0.3710258876891603
0.1559629479278588
0.9306982079241192
0.1391660204574492
0.17075200307502864
0.9306979104174777
0.4686407918198764
0.0199028968072926
0.9802407989005345
0.3710324328352725
0.8630401400423263
0.8895848726203002
0.8802622045033878
0.08247925374624082
0.5757598431187978
0.4686184788217666
0.27537303985889855
0.573247548284956
0.5519457752495003
0.15107119497558882
0.7335091696753265
0.5901466692867084
0.3999073861825123
0.3917479690337237
0.9802756071775858
0.46863930428666906
0.34114432062052746
0.7464236354746324
0.09816752271723526
0.12797649816535092
0.787334071248973
0.461868053126951
0.7956934128608254
0.3709748653001492
0.2753678334926729
0.02790106535640775
0.10948631164504959
0.9118911768306588
0.6477827796908281
0.2860054809648557
0.5901413141671621
0.21567223336301955
0.2575575984014373
0.9987363405403822
0.7988267528087231
0.3710894053571128
0.8539648486977911
0.5901300089147865
0.2734587333743992
0.5966076210193797
0.3708856133077101
0.46861669378191784
0.44165292309944204
0.00546891583670991
0.22464592618949478
0.18850571190438611
0.2307989585482509
0.44414379745509847
0.8216191828712336
0.982001294451397
0.8798522403514506
0.9991241404475303
0.07390555859921379
0.006526998207076225
0.2780672600039955
0.7355723782338786
0.3423645441104916
0.46095217893120444
0.9199317400761825
0.20526217847155664
0.019573110695229882
0.6889407409908667
0.37105548959998597
0.7758433234823926
0.8217798364576241
0.2587739543050624
0.762243402381154
0.1510756575752108
0.9822095491004217
0.4655208396708446
0.015533268010791756
0.6384595165606328
0.8119491757504121
0.8341703930613121
0.9992849427872416
0.9991248842141339
0.10293164532031722
0.7177686882887552
0.370857350176771
0.8478103288058276
0.6512005359879652
0.3367791544236486
0.04622851574382834
0.9371701674025246
0.13839413947617113
0.5828529964645798
0.9969584408509939
0.6821141535958364
0.1388750589620975
0.07444136806049025
0.10546402185245783
0.027885892517693092
0.8480008818096852
0.4678348463281507
0.5902089969280951
0.23101613839651952
0.25908068365241166
0.9650782241650067
0.15739886373288425
0.2494138003513256
0.07025500335513114
0.01078015315344396
0.4733120923508216
0.43575440767245827
0.39991229504209647
0.9992834552540343
0.5732476970382767
0.7984716786321359
0.18673941497401503
0.2594542032407696
0.9618016347692442
0.6003956243318187
0.4394086817495592
0.38449044326853293
0.10584319406700356
0.5977231221715485
0.30382717006178767
0.27536634595946563
0.7190858989438366
0.3278798382575393
0.44165292309944204
0.34225699545960236
0.8802622045033878
0.371085984030736
0.37102752397568833
0.3131278226872317
0.5770398654436962
0.15909331280934183
0.34334795231385046
0.5144426830398455
0.15596547673431124
0.08615435328824422
0.7038209819236452
0.1846796277418398
0.6464267444190357
0.9679012646858576
0.6324730879210965
0.13099500054964353
0.3037588922875717
0.6840607395509346
0.20899633308189064
0.030126415034557628
0.050088515663501545
0.10584170653379624
0.16600349957062355
0.19908861815453952
0.1679963478084694
0.5901347690210499
0.4655202446575617
0.6477857547572428
0.9042512062778661
0.019573110695229882
0.05634151025378953
0.38618786741140515
0.5830002622521044
0.37085184630390394
0.8174478422512684
0.23076995165070815
0.6580062979180932
0.005295766971377927
0.30383921908076694
0.8539429819596436
0.17029666916026817
0.48503370527117806
0.13892459381790123
0.20769548529208978
0.77238585004862
0.9284618505002351
0.6690542070488547
0.3710795876379445
0.9650654313794238
0.08042348285372536
0.7524536488371433
0.45408364309972765
0.8253171904246297
0.20238246293550696
0.030129241347651534
0.482128106657321
0.23091096979876205
0.9716638311804513
0.9992364492046829
0.48638289789021677
0.9124162760528426
0.24957653648420633
0.4658766576140354
0.23125191240987966
0.49472498411686416
0.9647125885026476
0.37088367951454054
0.9446308902038352
0.9197031062222175
0.11830976361758556
0.030126712541199092
0.9317710168732379
0.37090599251265033
0.0702529208086409
0.4927388297784513
0.027954914058512713
0.13889067806077435
0.9385275414542036
0.91969953614252
0.14888109983445244
0.6263315095680367
0.37317329062724663
0.11060820919000991
0.6335621109821751
0.43880623080059483
0.3709024224329528
0.4265159339350802
0.37111082583529825
0.37094704842917237
0.008295526437258303
0.8478600124149521
0.4655224759573727
0.4620410532389622
0.5680568011580148
0.23093625786328648
0.7021025835625498
0.33724668611070907
0.37097501405347
0.023397558571248155
0.5604397386166149
0.8216208191577616
0.43909912608911605
0.2156961826476574
0.9990393510547131
0.40533539485602094
0.8909651546833719
0.9990569039465594
0.2855122149533086
0.9802766484508308
0.2600646868690535
0.6527566444761421
0.3917479690337237
0.12552831601274458
0.9853583593936756
0.6511953296217396
0.08156174326396619
0.3723804354277454
0.9598523712543728
0.370954486095209
0.4996293811013964
0.6477808458976586
0.9691626928456644
0.3708273020059832
0.39849303960899296
0.25872293191605134
0.8539306354340228
0.030132811427349103
0.8539819553296752
0.3708048402545526
0.318125934263825
0.0278775623317321
0.9446292539173071
0.7643103297727243
0.3710267802090847
0.010623069646751027
0.18811181311108793
0.18497386181024758
0.3708969185600857
0.7817535904217142
0.2171118680010633
0.15956471208274137
0.6875185104913486
0.9228706594338836
0.6526449307322725
0.08113333370025819
0.752456028890275
0.2309060609391779
0.9820082858574715
0.03013355519395276
0.43145647797655023
0.6263303195414709
0.019176088082196324
0.7496387897489326
0.05994937329482209
0.7269899066409283
0.3135071436550982
0.8397453700157039
0.47070533915831503
0.632637609093826
0.3378577647522759
0.8437855102067835
0.34114684942697987
0.9678966533329149
0.15596503047434906
0.25391909217633396
0.1641238526098547
0.06067752079980496
0.4179278097159421
0.3710272264690469
0.9759473318042484
0.4240131593137652
0.7524526075638981
0.3999069399225501
0.19909010568774685
0.5901352152810121
0.4837370225743577
0.2970283995377342
0.5901371490741817
0.6345711047566999
0.8216188853645922
0.23164997629615833
0.7758446622622792
0.398500774781671
0.2640197401606744
0.3340853805385138
0.25864647270919516
0.9317690830800684
0.9759459930243618
0.5837943074781715
0.2591153431761422
0.8754653561697447
0.37092726423751504
0.46862323892803004
0.16946305555088637
0.7021024348092291
0.25765875065953503
0.4784381317832444
0.6821177236755339
0.8798474802451871
0.8539751126769216
0.37094734593581385
0.10272502695782056
0.15240878483561046
0.370882340734654
0.37089721606672715
0.426515487675118
0.370952254795398
0.155965625487632
0.84787176392729
0.9104857554563833
0.08113006112720209
0.3710104173438042
0.7696300460287401
0.7021039223424363
0.97893920734413
0.3411452131404518
0.9992819677208269
0.1709595139574497
0.638453268921162
0.8630820884787727
0.30510778739996897
0.3991069445636537
0.5651607227566846
0.023396666051323765
0.2495121262963294
0.0279064204759541
0.7696251371691559
0.46095173267124223
0.23310612255280333
0.25912709468848005
0.3756835029145982
0.7956935616141461
0.372612044348125
0.9990607715328985
0.68840894786925
0.4643400358108744
0.9992836040073549
0.8479959729501011
0.19426573798976846
0.18482005087661077
0.6430109219150681
0.8571866968715243
0.23100840322384147
0.37109699177647015
0.8088046793034596
0.2935624471646799
0.10665613096480363
0.9280258545171698
0.027476225872397318
0.022521252758816276
0.3050533436845811
0.3708301283190771
0.5827673145518383
0.02007976450564288
0.023396219791361566
0.2970281020310927
0.12797709317863384
0.9168175893066592
0.7038209819236452
0.9128891628594494
0.3708302770723978
0.11249544257013608
0.5757590993521942
0.027918469494933387
0.4314619818494173
0.172433808119224
0.26732846027371504
0.9790512185946411
0.36727150262720676
0.468596612083619
0.25766023819274236
0.2996354502368822
0.02209909083457902
0.303824790008656
0.7892873511035042
0.6690582233885144
0.11060701916344405
0.47069894276552354
0.8237808661281102
0.4053395599490014
0.5651598302367602
0.3708835307612198
0.750118072948331
0.8479973117299877
0.9650803067114969
0.06508314789992294
0.7808772846092823
0.3120063714022336
0.6906213560084962
0.3421485542887888
0.18810764801810745
0.6097816613633629
0.4686439156396118
0.9632811352972441
0.9650877443775335
0.928458577927179
0.3306866646664304
0.044034999276315094
0.9196920984764834
0.5966065797461346
0.4593684023253714
0.9542784355732261
0.27537303985889855
0.7608988211150579
0.7257513864925142
0.9199323350894655
0.821620075391158
0.8478580786217826
0.3474306359546594
0.7201784920846127
0.25877276427849655
0.9822095491004217
0.2427877324326419
0.28600533221153496
0.9716659137269416
0.3710249951692359
0.9641486646637528
0.9795653100710907
0.4452188377040282
0.3119919423301226
0.14075649096271514
0.9124838100604549
0.817445908458099
0.18673926622069428
0.3709419908162675
0.07172900001026399
0.0008974287839758163
0.45947133962331793
0.10159628676010656
0.2576627669991948
0.9755025593752599
0.5866085715530992
0.5852921046646216
0.4589942877237306
0.6363519795125027
0.13889201684066094
0.4266078634872925
0.010606855534791244
0.3041853680581102
0.3709736752735834
0.7874136542755646
0.9882649992807777
0.999126520500662
0.3038053033236401
0.8271074366396387
0.06239591916090037
0.5910498994501928
0.7177695808086796
0.37093946200981504
0.02790329665621873
0.022100875874427803
0.7994741272605485
0.06782080401467362
0.48390645260667137
0.9992886616202599
0.49273719349192324
0.37110904079544943
0.15107952516154982
0.9445187302000033
0.847867301327668
0.9018665417932124
0.10234749102980288
0.1309926204965118
0.46203956570575494
0.032852617143611956
0.9822102928670254
0.49092627056533256
0.7697624364841915
0.4733058447113509
0.965088041884175
0.8070093754755457
0.08437600733889383
0.04622792073054541
0.37087802688835275
0.43575158135936437
0.7612064429823315
0.7438714747508345
0.9054308201112704
0.4655232197239763
0.8909691710230316
0.5482450901363309
0.8861706864028606
0.4996293811013964
0.9863698819746527
0.2564822606458661
0.14389935112313965
0.027936468646741954
0.8754671412095936
0.005752588419345726
0.7270397390033736
0.37087430805533445
0.8216165053114605
0.8798473314918664
0.01003549402985985
0.27778938880086823
0.42488976263283856
0.8539652949577533
0.2587749955783075
0.571739784626017
0.5680587349511844
0.13890466087292316
0.4685952733037324
0.8253189754644785
0.13839562700937846
0.7978812767021508
0.4707108430311821
0.5607846975673924
0.370929495537326
0.010779855646802495
0.9272547173024954
0.1389076359393378
0.25912010328240564
0.4593465355872238
0.8539687162841302
0.8894567960111499
0.5521711365304092
0.9381312626077737
0.7584784558334284
0.9788764334427811
0.37103079654874443
0.9118892430374893
0.12456632828757111
0.005678806772262682
0.7163769522199871
0.12893327952429878
0.019173261769102418
0.061070080813216555
0.23101792343636832
0.7990568741958953
0.21634623465925598
0.582108188587675
0.17116181847364514
0.6527560494628591
0.37108107517115185
0.7291181204006403
0.3708048402545526
0.94963539817322
0.3709015299130284
0.6212990359743543
0.7677927937643798
0.019538302418178607
0.7209726860640006
0.6745812854339707
0.4678348463281507
0.5680608174976746
0.2594519719409586
0.7524535000838225
0.4900994996087044
0.37085764768341245
0.45676507045924164
0.24957490019767828
0.11060701916344405
0.9180326064303977
0.20976568525671624
0.37110948705541164
0.30476297720251233
0.26649737547078567
0.933248732361389
0.3038182448625438
0.23101524587659514
0.4440191421723251
0.3999099149889647
0.28551340497987443
0.4415763151392651
0.7438258074813697
0.02252006273225042
0.40533420482945504
0.37237835288125515
0.8478534672688399
0.2310028993509744
0.9678953145530282
0.1201148851646677
0.6526441869656687
0.7502864617073995
0.7820277427918232
0.7818550401864534
0.039027367487194944
0.2541246692655855
0.37237463404823684
0.28551370248651586
0.7622439973944368
0.15210770811444901
0.9788728633630835
0.34114476688048967
0.027905974215991905
0.019538302418178607
0.37076348683138916
0.30177645678217707
0.23119077479505884
0.2599251562542069
0.03282093268629606
0.2587705329786856
0.26649395414440885
0.18383262633359213
0.1015913779005224
0.258769194198799
0.7106008607759657
0.8539046036028947
0.37093068556389186
0.37082864078586975
0.5143213003301282
0.7209732810772834
0.8479992455231572
0.17672162258932228
0.0020434243668947106
0.23071327663550928
0.8815408880483996
0.23748765161496274
0.3047647622423611
0.23787693905531823
0.8754641661431789
0.13890510713288537
0.3783513937219256
0.7965127461514169
0.43910061362232333
0.1257681063657645
0.6466625184323959
0.9122715390717704
0.33408612430511747
0.010778516866915907
0.8539664849843192
0.37088427452782347
0.651199048454758
0.7817507641086203
0.8070093754755457
0.4565287014325986
0.2587772268781185
0.6475371879582997
0.8539364368135313
0.21613455868385442
0.1590955441091528
0.37082953330579416
0.9650837280378738
0.7994772510802838
0.475486122133319
0.456529593952523
0.9447106219837476
0.6514571354662279
0.5651613177699676
0.5901364053075779
0.06781723393497606
0.34236528787709525
0.8539394118799459
0.8478713176673278
0.07159467576164304
0.7297837915109158
0.8933440177885171
0.7038403198553403
0.35873588833028713
0.4826892041831219
0.027904635436105316
0.6949076829453872
0.0008984700572209399
0.4314424951644014
0.2182663425232639
0.25061409089631165
0.03012968760761373
0.06701009841668452
0.34225699545960236
0.10258222376991788
0.7349059633569995
0.2308242466127753
0.31137997116863136
0.2171114217411011
0.13893426278374882
0.3710226151161042
0.048093584879165444
0.8798488190250737
0.5669932149147815
0.12893833713720368
0.23077307547044354
0.6263315095680367
0.6857446271416201
0.043228458771306495
0.08113556500006917
0.8216165053114605
0.7177758284481504
0.04286847573513519
0.8480022205895719
0.4643076075869549
0.7610982993181594
0.46552470725718365
0.9820076908441885
0.24957757775745146
0.9678921907332929
0.8539330154871545
0.742735743147046
0.12552489468636777
0.9128899066260531
0.30383951658740843
0.9992792901610538
0.8534834829519026
0.8539959381418241
0.8216165053114605
0.1510771451084181
0.12797560564542654
0.9180333501970015
0.45936944359861653
0.13919190353525654
0.33422669619320916
0.2586998751513379
0.5651573014303078
0.9650606712731603
0.7182052792851035
0.3708275995126246
0.0588848945316643
0.8430548338953482
0.3821666188920585
0.13950621930196314
0.37094957723562483
0.3709776916132432
0.2599251562542069
0.18057001974997838
0.7136610140900633
0.2246460749428155
0.13891537111201585
0.8897327334211077
0.9780737605241115
0.9647125885026476
0.8376866240567737
0.46552143468412754
0.37096638636086754
0.8803282509777928
0.04421975090066417
0.12723005400191803
0.3133954299112285
0.2097659827633577
0.8216165053114605
0.9197001311558028
0.37085110253730025
0.8216165053114605
0.9992886616202599
0.5827673145518383
0.1709575801642802
0.3710104173438042
0.2575628047676629
0.08895671709751331
0.5482455363962931
0.17749588362373203
0.6885237854328551
0.9467601452367922
0.6554868629248563
0.8119494732570536
0.8478488559158972
0.23071297912886782
0.6545088098410436
0.27536634595946563
0.04809120482603373
0.5476912815232459
0.15108012017483274
0.34114417186720675
0.3192516993951244
0.2792779632814328
0.19022738283853763
0.7470672910934395
0.04286862448845592
0.4686082148426361
0.08897233619619016
0.3259035016382947
0.459369741105258
0.3708707379756369
0.45085703481973105
0.6465521434684127
0.2587810944644576
0.5510908899152538
0.3708460449243954
0.7592217761771259
0.022092843195108278
0.37101770625652003
0.470695372685826
0.45926606004070786
0.7873322862091242
0.2591190620091605
0.6527569419827836
0.6475984743264412
0.7247174021601065
0.4686357342069715
0.3436674744467827
0.10159048538059802
0.45431926835976705
0.3038273188151084
0.5966076210193797
0.46860687606274953
0.9795659050843736
0.37082492195285144
0.3480826217594275
0.07107418789240197
0.027889313844069927
0.3438575811906781
0.30505155864473227
0.4941341359269169
0.3192165936114316
0.6512011310012482
0.8119488782437707
0.5482558003754237
0.4237873517728941
0.1285929319264641
0.48638200537029236
0.4860560868445687
0.9197037012355005
0.7820277427918232
0.3474282559015277
0.07160017963451011
0.9245380354059679
0.548599123039673
0.9650740590720263
0.6910808550162372
0.7873334762356902
0.9616438074959476
0.8895841288536965
0.8459977695927089
0.9265711957937321
0.4941507962988389
0.9788782184826299
0.12001403041321143
0.9650822405046665
0.3709430320895126
0.9988099734341445
0.46861327245554096
0.05008881317014301
0.3709364869434004
0.651200684741286
0.847849004669218
0.6107228236236338
0.8341700955546706
0.465140477429733
0.6384525251545584
0.3411449156338104
0.34282300184498743
0.6948359838447944
0.05040744278315083
0.7177731508883771
0.3708830845012576
0.1389336677704659
0.13839339570956746
0.039030491306930315
0.9124832150471719
0.8515092288791482
0.5551363852258797
0.3038570694792548
0.6093605407123708
0.9480425476148223
0.7892888386367115
0.349050708370751
0.4593465355872238
0.4658735337943
0.3710188962830859
0.790713597942682
0.8539768977167704
0.8478597149083107
0.9224102679062182
0.9118886480242063
0.3708252194594929
0.15117413227353535
0.2393357628717364
0.37103124280870664
0.9088781783192332
0.3917479690337237
0.26431873433534564
0.6923958343715075
0.5768237268686727
0.37087207675552347
0.919695073542898
0.37237835288125515
0.1289389321504866
0.3707584292184843
0.8478072049860923
0.4565278089126742
0.9197028087155761
0.3038114022097901
0.11594413955798545
0.9781875568144714
0.31846836440814996
0.4379055294435629
0.31962968158310423
0.6690545045554961
0.5901688335314975
0.29791824190235267
0.5821090811075994
0.045940678068212025
0.9990447061742594
0.2543769548975469
0.8479959729501011
0.23091201107200718
0.02787265347214795
0.0008946024708819094
0.37087386179537224
0.18776581288706543
0.4594702983500728
0.8804593026533576
0.8798513478315262
0.3139068438279049
0.6027951641485456
0.7480791111810582
0.5901706185713463
0.9650874468708921
0.4706958189457882
0.5540040749484682
0.46863603171361295
0.7800255230947711
0.8376866240567737
0.6552301146932729
0.13893708909684271
0.26401988891399514
0.5650946762822796
0.03538410115582818
0.3487732834275859
0.3017760105222149
0.299633367690392
0.9991253304740961
0.33160209260221474
0.47330480343810577
0.4652477285739808
0.7291212442203757
0.5820948007888092
0.4565289989392401
0.26649350788444665
0.3999124437954172
0.5901367028142195
0.0599484807748977
0.4659288700296123
0.932414672492045
0.5519463702627831
0.1067486555302989
0.8756069693310816
0.372612044348125
0.3436670281868205
0.027952087745418807
0.49472543037682637
0.4837371713276784
0.08113675502663503
0.4686012234365617
0.8186778834604009
0.999240316791022
0.5521703927638054
0.9306251700436398
0.46551801335775067
0.29702973831762075
0.8722702835937434
0.08113273868697526
0.05991724257754399
0.098167671470556
0.9480496877742175
0.030129836360934463
0.27779310763388654
0.4492009641000223
0.3139068438279049
0.3710989255696397
0.3342247624000396
0.12011429015138476
0.7892839297771274
0.4780345640240986
0.3119480601005067
0.21569469511445005
0.17672370513581254
0.2568450699951313
0.641676902134744
0.7464254205144812
0.027935724880138294
0.9650899756773446
0.4190754415853891
0.3199587239285633
0.8257237332501901
0.6258098316722298
0.6906213560084962
0.46204343329209396
0.73340623237738
0.20238246293550696
0.6259861043572972
0.6902244821487834
0.7269903529008905
0.7427327680806315
0.3710166649832749
0.0966225707281133
0.0233963685446823
0.02787518227860039
0.8293632807485386
0.25906893214007387
0.3709030174462357
0.08035089123320817
0.2569438422000973
0.4525447899967557
0.5109483187825314
0.5848242754709195
0.5143233828766185
0.25694354469345587
0.919692842243087
0.7434009679973593
0.8237808661281102
0.27536649471278635
0.7501954246751116
0.12001269163332486
0.8233844385283596
0.8751064144068186
0.3030488926877181
0.022521401512137006
0.3710239538959908
0.059952199607916
0.7622436998877954
0.6857458171681861
0.6463031304095075
0.6904395794505618
0.18850407561785806
0.9788749459095738
0.7907109203829089
0.25877633435819414
0.2320409000230419
0.12456573327428819
0.43837841625016977
0.9567275102457569
0.6580065954247346
0.0464392991993055
0.3709745677935078
0.8815402930351166
0.9650838767911946
0.27536946977920096
0.7584783070801077
0.4780348615307401
0.6520844282197544
0.9196947760362565
0.15909346156266255
0.9735144712436774
0.08897650128917066
0.18850615816434832
0.6690548020621375
0.764313751099101
0.75083119636792
0.6924096684303356
0.9992141362065732
0.8271007427402057
0.14660324023408416
0.49273630097199883
0.9788780697293091
0.7270889763525359
0.5920856688224494
0.9381305188411699
0.8754660999363485
0.9224465637164768
0.7612715969368121
0.6686194010923552
0.9990521438402961
0.26649633419754054
0.1029277777339782
0.039030045046968116
0.9635613865535031
0.02796845061069932
0.17878259984806336
0.9359036816298127
0.38995028515267816
0.06508210662667781
0.3709672788807919
0.9678972483461977
0.6345712535100205
0.27273356093583095
0.1200110553467968
0.15739960749948792
0.4053401549622843
0.4678348463281507
0.25877276427849655
0.46434524217710005
0.4678348463281507
0.1590953953558321
0.29171344338798183
0.9700720218952987
0.4707103967712199
0.16799471152194134
0.4899584814606505
0.2182645574834151
0.37091476895857356
0.3180717880550786
0.6580062979180932
0.4784284628173968
0.6524328084969087
0.45354247851890483
0.9992421018308707
0.149525052959901
0.04622792073054541
0.3821637925789646
0.6862015973429086
0.372612044348125
0.21097609102751208
0.5828503189048067
0.9447283236289146
0.8861718764294264
0.9992815214608647
0.9623402705436146
0.31980104540858745
0.8468477460673712
0.13528117873321374
0.7360887010101391
0.8478475171360107
0.32787909449093566
0.9118908793240174
0.22814876938609058
0.45679214356361486
0.27833055338169105
0.18497386181024758
0.10292881900722331
0.9088787733325162
0.3038125922363559
0.237487502861642
0.6466848314305057
0.46024128681142645
0.0200812520388502
0.8478075024927337
0.2564831531657905
0.2753740811321437
0.9798659405322899
0.45662479607779144
0.7892941937562579
0.18497386181024758
0.7874145467954891
0.4250126328757632
0.0803468748935484
0.5485995692996352
0.010821506576607439
0.8815385079952679
0.07390540984589304
0.8795660389623623
0.7021046661090401
0.058881175698646
0.37096341129445287
0.6851793645228388
0.27536634595946563
0.23100364311757804
0.7038403198553403
0.9446012882930095
0.12910984971600759
0.8539356930469276
0.4930976227880567
0.845807365342172
0.9181374775215139
0.13893470904371102
0.18961600669032935
0.2670409201047402
0.28342699090328816
0.23102089850278296
0.715702207157147
0.2309471168556999
0.3290011407892167
0.9783282774558839
0.9381306675944907
0.8458052827956818
0.46864614693942275
0.38216230504575727
0.47069626520575036
0.9418383441137345
0.3318473868281017
0.9635618328134653
0.25912025203572636
0.8933291424564439
0.47548746091320554
0.46860895860923973
0.9679006696725746
0.9802772434641138
0.9991235454342474
0.3710891078504714
0.8895845751136587
0.7438243199481624
0.9987391668534761
0.37087460556197593
0.07446308604531711
0.4686372217401788
0.8208053534535091
0.25911400439625565
0.17672325887585033
0.2593131850927157
0.2130120777283702
0.9863716670145015
0.3314212085642047
0.9423705834953133
0.39174915906028956
0.18811523443746478
